Time S;Temperature
0;5.292162628
0.00002;5.292209976
0.00004;5.292256919
0.00006;5.292303432
0.00008;5.292338937
0.0001;5.292373444
0.00012;5.292406922
0.00014;5.29244989
0.00016;5.292492285
0.00018;5.292544121
0.0002;5.292584274
0.00022;5.292633309
0.00024;5.292671129
0.00026;5.292707745
0.00028;5.292732583
0.0003;5.292766714
0.00032;5.292800072
0.00034;5.292842671
0.00036;5.292883941
0.00038;5.292913822
0.0004;5.292942838
0.00042;5.292960927
0.00044;5.292978608
0.00046;5.292995851
0.00048;5.293022664
0.0005;5.293048471
0.00052;5.293063207
0.00054;5.293077392
0.00056;5.293101036
0.00058;5.293123561
0.0006;5.293134903
0.00062;5.293177236
0.00064;5.293219915
0.00066;5.29325135
0.00068;5.293281047
0.0007;5.293308987
0.00072;5.29335625
0.00074;5.293412788
0.00076;5.293478082
0.00078;5.293541584
0.0008;5.293613842
0.00082;5.293684824
0.00084;5.293754535
0.00086;5.293833018
0.00088;5.293899182
0.0009;5.293953032
0.00092;5.294005119
0.00094;5.294055443
0.00096;5.294104004
0.00098;5.294150802
0.001;5.294195837
0.00102;5.294228557
0.00104;5.294258998
0.00106;5.294287153
0.00108;5.294313018
0.0011;5.294336587
0.00112;5.294368406
0.00114;5.294388398
0.00116;5.294407109
0.00118;5.294404455
0.0012;5.294401523
0.00122;5.294366646
0.00124;5.294361562
0.00126;5.294366177
0.00128;5.294359893
0.0013;5.294353244
0.00132;5.294346216
0.00134;5.294369933
0.00136;5.294393768
0.00138;5.29441772
0.0014;5.294420687
0.00142;5.2944338
0.00144;5.294458078
0.00146;5.294493521
0.00148;5.294519032
0.0015;5.29454465
0.00152;5.294580926
0.00154;5.294617826
0.00156;5.294665394
0.00158;5.294681437
0.0016;5.294696066
0.00162;5.294709276
0.00164;5.294752714
0.00166;5.294775173
0.00168;5.294786179
0.0017;5.294795766
0.00172;5.294803928
0.00174;5.294810661
0.00176;5.294795883
0.00178;5.294780679
0.0018;5.294765034
0.00182;5.294748933
0.00184;5.29473236
0.00186;5.294715301
0.00188;5.29469774
0.0019;5.294679662
0.00192;5.294661052
0.00194;5.294641893
0.00196;5.294611621
0.00198;5.294580253
0.002;5.29455832
0.00202;5.294535768
0.00204;5.294512582
0.00206;5.294498784
0.00208;5.294483303
0.0021;5.294455576
0.00212;5.29442614
0.00214;5.294426632
0.00216;5.294415872
0.00218;5.29440287
0.0022;5.29437707
0.00222;5.294359564
0.00224;5.294330268
0.00226;5.294309251
0.00228;5.294295995
0.0023;5.2942905
0.00232;5.294303322
0.00234;5.294314399
0.00236;5.294323745
0.00238;5.294331378
0.0024;5.29433731
0.00242;5.294331008
0.00244;5.29432252
0.00246;5.294342484
0.00248;5.294349236
0.0025;5.294363383
0.00252;5.294374915
0.00254;5.294383855
0.00256;5.29439023
0.00258;5.294394576
0.0026;5.294397432
0.00262;5.294398823
0.00264;5.294398775
0.00266;5.294417902
0.00268;5.294435651
0.0027;5.294431468
0.00272;5.294405377
0.00274;5.294367946
0.00276;5.294329735
0.00278;5.294290755
0.0028;5.294251016
0.00282;5.294210527
0.00284;5.2941693
0.00286;5.294127344
0.00288;5.294074631
0.0029;5.294021716
0.00292;5.293968605
0.00294;5.293905265
0.00296;5.293852284
0.00298;5.293799117
0.003;5.29373573
0.00302;5.293672675
0.00304;5.293609951
0.00306;5.293547558
0.00308;5.293485497
0.0031;5.293423766
0.00312;5.293362367
0.00314;5.293301299
0.00316;5.293240562
0.00318;5.293190195
0.0032;5.293139653
0.00322;5.293088939
0.00324;5.29303806
0.00326;5.29299706
0.00328;5.292955397
0.0033;5.292913082
0.00332;5.292870124
0.00334;5.292816496
0.00336;5.292783344
0.00338;5.29276013
0.0034;5.292725775
0.00342;5.292690331
0.00344;5.292664366
0.00346;5.292627822
0.00348;5.292591266
0.0035;5.292554711
0.00352;5.292518687
0.00354;5.292493247
0.00356;5.292477387
0.00358;5.292460582
0.0036;5.292432818
0.00362;5.292404667
0.00364;5.292376149
0.00366;5.292337758
0.00368;5.292300572
0.0037;5.292264606
0.00372;5.292229876
0.00374;5.292196397
0.00376;5.292184262
0.00378;5.292161843
0.0038;5.292139201
0.00382;5.292106827
0.00384;5.292075802
0.00386;5.292096334
0.00388;5.292105158
0.0039;5.292082744
0.00392;5.29205124
0.00394;5.292031249
0.00396;5.292012242
0.00398;5.291994239
0.004;5.291966709
0.00402;5.291949745
0.00404;5.291932817
0.00406;5.291915945
0.00408;5.29189915
0.0041;5.291882451
0.00412;5.29186587
0.00414;5.291869503
0.00416;5.291872281
0.00418;5.291874233
0.0042;5.291844762
0.00422;5.291815023
0.00424;5.291785032
0.00426;5.291775393
0.00428;5.291744954
0.0043;5.291734908
0.00432;5.291724691
0.00434;5.291714329
0.00436;5.291693297
0.00438;5.291661614
0.0044;5.291650437
0.00442;5.291639201
0.00444;5.291638483
0.00446;5.291638275
0.00448;5.291638607
0.0045;5.291628958
0.00452;5.291609355
0.00454;5.291600919
0.00456;5.291593637
0.00458;5.291576985
0.0046;5.29156102
0.00462;5.291556314
0.00464;5.291552854
0.00466;5.291530076
0.00468;5.291498033
0.0047;5.291466775
0.00472;5.291426274
0.00474;5.291387084
0.00476;5.291338661
0.00478;5.29129053
0.0048;5.291242181
0.00482;5.291183573
0.00484;5.291105176
0.00486;5.291048154
0.00488;5.290980848
0.0049;5.290913287
0.00492;5.290856012
0.00494;5.290778902
0.00496;5.29072312
0.00498;5.29066756
0.005;5.290592138
0.00502;5.290517943
0.00504;5.290444957
0.00506;5.290373166
0.00508;5.290292517
0.0051;5.290223577
0.00512;5.290155781
0.00514;5.290089114
0.00516;5.290034111
0.00518;5.289980724
0.0052;5.289950043
0.00522;5.289911953
0.00524;5.289887039
0.00526;5.289864748
0.00528;5.289834531
0.0053;5.289816971
0.00532;5.289802031
0.00534;5.28978971
0.00536;5.289769457
0.00538;5.289751306
0.0054;5.289725213
0.00542;5.289701719
0.00544;5.289671286
0.00546;5.289644964
0.00548;5.289612184
0.0055;5.289613083
0.00552;5.289585886
0.00554;5.289562225
0.00556;5.289552119
0.00558;5.289554528
0.0056;5.289538302
0.00562;5.289524521
0.00564;5.289533244
0.00566;5.289543358
0.00568;5.289554852
0.0057;5.289567718
0.00572;5.289581944
0.00574;5.289617597
0.00576;5.289653577
0.00578;5.289710985
0.0058;5.289769754
0.00582;5.289829893
0.00584;5.289891413
0.00586;5.289954324
0.00588;5.290018636
0.0059;5.29008436
0.00592;5.290151505
0.00594;5.290220083
0.00596;5.290290102
0.00598;5.290361574
0.006;5.290434508
0.00602;5.290508915
0.00604;5.290584804
0.00606;5.290662187
0.00608;5.290730522
0.0061;5.290789302
0.00612;5.290839039
0.00614;5.290860676
0.00616;5.290885843
0.00618;5.290903971
0.0062;5.290914521
0.00622;5.290938052
0.00624;5.290964501
0.00626;5.291004392
0.00628;5.291076759
0.0063;5.291098725
0.00632;5.291112465
0.00634;5.291117941
0.00636;5.291125664
0.00638;5.291135594
0.0064;5.291147689
0.00642;5.291171948
0.00644;5.291197785
0.00646;5.291255279
0.00648;5.291281617
0.0065;5.291307392
0.00652;5.291342607
0.00654;5.29137668
0.00656;5.291409582
0.00658;5.291441281
0.0066;5.291482298
0.00662;5.291522568
0.00664;5.291562067
0.00666;5.291600768
0.00668;5.291628095
0.0067;5.291644018
0.00672;5.291669602
0.00674;5.29170533
0.00676;5.291751687
0.00678;5.291798615
0.0068;5.291846094
0.00682;5.291894103
0.00684;5.291942621
0.00686;5.291991628
0.00688;5.292041104
0.0069;5.292091541
0.00692;5.292143429
0.00694;5.29219675
0.00696;5.292262033
0.00698;5.292318674
0.007;5.29237669
0.00702;5.292446613
0.00704;5.292518387
0.00706;5.292591999
0.00708;5.292667433
0.0071;5.292744673
0.00712;5.292823704
0.00714;5.29290451
0.00716;5.292987078
0.00718;5.29307139
0.0072;5.293146882
0.00722;5.293223571
0.00724;5.293301437
0.00726;5.29338046
0.00728;5.293450068
0.0073;5.293520275
0.00732;5.293581016
0.00734;5.293652851
0.00736;5.293725716
0.00738;5.293789545
0.0074;5.293843797
0.00742;5.293908512
0.00744;5.293973111
0.00746;5.294037562
0.00748;5.294112386
0.0075;5.294187518
0.00752;5.294252893
0.00754;5.294339623
0.00756;5.294405995
0.00758;5.294471544
0.0076;5.294525689
0.00762;5.294599534
0.00764;5.294672465
0.00766;5.294744455
0.00768;5.294846621
0.0077;5.294948322
0.00772;5.295059589
0.00774;5.295169864
0.00776;5.295279144
0.00778;5.29536632
0.0078;5.295451456
0.00782;5.295534535
0.00784;5.295636645
0.00786;5.295737702
0.00788;5.295805026
0.0079;5.295847609
0.00792;5.295928727
0.00794;5.296018766
0.00796;5.29609713
0.00798;5.296173848
0.008;5.29624891
0.00802;5.296322305
0.00804;5.296383474
0.00806;5.296442438
0.00808;5.296499184
0.0081;5.296553695
0.00812;5.296605956
0.00814;5.296655952
0.00816;5.296682567
0.00818;5.296695812
0.0082;5.296706209
0.00822;5.296734829
0.00824;5.296761574
0.00826;5.296776384
0.00828;5.296769196
0.0083;5.296771114
0.00832;5.296751479
0.00834;5.29673084
0.00836;5.296709157
0.00838;5.296686388
0.0084;5.296693122
0.00842;5.296667564
0.00844;5.296630774
0.00846;5.296593258
0.00848;5.296554971
0.0085;5.296515865
0.00852;5.296475896
0.00854;5.296445568
0.00856;5.296424841
0.00858;5.296413166
0.0086;5.296399963
0.00862;5.296385201
0.00864;5.296378887
0.00866;5.296380485
0.00868;5.296389974
0.0087;5.296407339
0.00872;5.296422018
0.00874;5.296444553
0.00876;5.296474938
0.00878;5.296492584
0.0088;5.296497484
0.00882;5.296499669
0.00884;5.296509679
0.00886;5.296538572
0.00888;5.296555211
0.0089;5.296559086
0.00892;5.296560742
0.00894;5.296560173
0.00896;5.296578477
0.00898;5.296574479
0.009;5.296568251
0.00902;5.296580891
0.00904;5.296592326
0.00906;5.296602561
0.00908;5.296611602
0.0091;5.296630003
0.00912;5.296637185
0.00914;5.296643194
0.00916;5.296648032
0.00918;5.296651707
0.0092;5.296654222
0.00922;5.296645544
0.00924;5.296646775
0.00926;5.296647369
0.00928;5.296636781
0.0093;5.29662556
0.00932;5.296613708
0.00934;5.296601224
0.00936;5.296588108
0.00938;5.29657436
0.0094;5.296570019
0.00942;5.296565051
0.00944;5.296559974
0.00946;5.296575894
0.00948;5.296592749
0.0095;5.296610555
0.00952;5.296597673
0.00954;5.296615874
0.00956;5.296635055
0.00958;5.296644682
0.0096;5.296633701
0.00962;5.296643291
0.00964;5.296653387
0.00966;5.296642895
0.00968;5.296631894
0.0097;5.296610344
0.00972;5.296578753
0.00974;5.296537622
0.00976;5.296476386
0.00978;5.296415097
0.0098;5.296343689
0.00982;5.296272684
0.00984;5.296202051
0.00986;5.29613176
0.00988;5.296061779
0.0099;5.295992079
0.00992;5.295922628
0.00994;5.295853396
0.00996;5.295784353
0.00998;5.295715468
0.01;5.29564671
0.01002;5.295578049
0.01004;5.295509454
0.01006;5.295440895
0.01008;5.295372341
0.0101;5.295303762
0.01012;5.295245165
0.01014;5.295207077
0.01016;5.295211095
0.01018;5.295216558
0.0102;5.295223471
0.01022;5.295231838
0.01024;5.295241666
0.01026;5.295252958
0.01028;5.29526572
0.0103;5.295227203
0.01032;5.295240335
0.01034;5.295254927
0.01036;5.295281535
0.01038;5.29531013
0.0104;5.295340722
0.01042;5.295363283
0.01044;5.295387857
0.01046;5.295413937
0.01048;5.295409875
0.0105;5.295406289
0.01052;5.295403681
0.01054;5.295391491
0.01056;5.295379742
0.01058;5.295358379
0.0106;5.295347972
0.01062;5.295337955
0.01064;5.295328313
0.01066;5.29531903
0.01068;5.295310091
0.0107;5.295311519
0.01072;5.295313266
0.01074;5.295315833
0.01076;5.295339288
0.01078;5.295362529
0.0108;5.295385556
0.01082;5.295408369
0.01084;5.295430968
0.01086;5.295453353
0.01088;5.295475523
0.0109;5.29549748
0.01092;5.295529774
0.01094;5.295562371
0.01096;5.295595276
0.01098;5.295628495
0.011;5.295662032
0.01102;5.295685854
0.01104;5.295710511
0.01106;5.295736005
0.01108;5.295762333
0.0111;5.295789498
0.01112;5.295807459
0.01114;5.295826764
0.01116;5.295847405
0.01118;5.295869379
0.0112;5.295892681
0.01122;5.295917305
0.01124;5.295953285
0.01126;5.29599007
0.01128;5.296017621
0.0113;5.296046485
0.01132;5.296076655
0.01134;5.296118678
0.01136;5.296141926
0.01138;5.296187567
0.0114;5.296245051
0.01142;5.296303831
0.01144;5.296353363
0.01146;5.296403684
0.01148;5.296434718
0.0115;5.296467556
0.01152;5.296502187
0.01154;5.296549152
0.01156;5.296607935
0.01158;5.296667472
0.0116;5.296697134
0.01162;5.296738598
0.01164;5.296771265
0.01166;5.296805156
0.01168;5.296840258
0.0117;5.296866004
0.01172;5.296892413
0.01174;5.296908912
0.01176;5.296925516
0.01178;5.296942199
0.0118;5.296948897
0.01182;5.296956129
0.01184;5.296963866
0.01186;5.296972077
0.01188;5.296980732
0.0119;5.296968697
0.01192;5.296977112
0.01194;5.296985868
0.01196;5.296994935
0.01198;5.297004282
0.012;5.297013879
0.01202;5.297023696
0.01204;5.2970337
0.01206;5.297043863
0.01208;5.297054153
0.0121;5.29706454
0.01212;5.297074993
0.01214;5.297085482
0.01216;5.297106014
0.01218;5.297126014
0.0122;5.297156008
0.01222;5.297185934
0.01224;5.297215775
0.01226;5.297245508
0.01228;5.297285665
0.0123;5.297326703
0.01232;5.29736912
0.01234;5.29742345
0.01236;5.297479646
0.01238;5.297547735
0.0124;5.297617162
0.01242;5.297656781
0.01244;5.297718301
0.01246;5.297802225
0.01248;5.297887964
0.0125;5.297975516
0.01252;5.298074921
0.01254;5.298185672
0.01256;5.298297228
0.01258;5.29838901
0.0126;5.298471056
0.01262;5.298543361
0.01264;5.298626505
0.01266;5.298699381
0.01268;5.298761467
0.0127;5.298822785
0.01272;5.298872771
0.01274;5.298921442
0.01276;5.298978817
0.01278;5.299023778
0.0128;5.299076896
0.01282;5.299128115
0.01284;5.299177421
0.01286;5.299224798
0.01288;5.299270231
0.0129;5.299303154
0.01292;5.299334098
0.01294;5.299353514
0.01296;5.29937193
0.01298;5.299389319
0.013;5.299405655
0.01302;5.299420914
0.01304;5.299435069
0.01306;5.299448096
0.01308;5.299459969
0.0131;5.299470662
0.01312;5.29948015
0.01314;5.299488407
0.01316;5.299495409
0.01318;5.299501128
0.0132;5.299505541
0.01322;5.299508621
0.01324;5.299510856
0.01326;5.29952277
0.01328;5.299513202
0.0133;5.299513263
0.01332;5.299512889
0.01334;5.299522092
0.01336;5.299530302
0.01338;5.299537497
0.0134;5.299543658
0.01342;5.299538214
0.01344;5.299541727
0.01346;5.299544141
0.01348;5.299545433
0.0135;5.299545584
0.01352;5.299544573
0.01354;5.29954238
0.01356;5.299538984
0.01358;5.299534365
0.0136;5.299508426
0.01362;5.299482236
0.01364;5.299455767
0.01366;5.299449064
0.01368;5.299441006
0.0137;5.299431572
0.01372;5.299431293
0.01374;5.299440665
0.01376;5.299460191
0.01378;5.299479826
0.0138;5.299499566
0.01382;5.299529956
0.01384;5.299560958
0.01386;5.299612648
0.01388;5.299663936
0.0139;5.299714832
0.01392;5.299765346
0.01394;5.299815487
0.01396;5.299865267
0.01398;5.299934773
0.014;5.299982845
0.01402;5.300030597
0.01404;5.300088077
0.01406;5.30013471
0.01408;5.300181058
0.0141;5.300227131
0.01412;5.3002629
0.01414;5.30028837
0.01416;5.30031358
0.01418;5.30032798
0.0142;5.300341602
0.01422;5.300354443
0.01424;5.300366496
0.01426;5.300377757
0.01428;5.30038822
0.0143;5.300387842
0.01432;5.300387163
0.01434;5.300386174
0.01436;5.300384863
0.01438;5.300383221
0.0144;5.300371199
0.01442;5.300359333
0.01444;5.300368196
0.01446;5.300356604
0.01448;5.300345133
0.0145;5.300323727
0.01452;5.300313468
0.01454;5.300304302
0.01456;5.300296214
0.01458;5.300289188
0.0146;5.30029376
0.01462;5.30028933
0.01464;5.300285923
0.01466;5.300283521
0.01468;5.300292149
0.0147;5.300291208
0.01472;5.30029072
0.01474;5.30029067
0.01476;5.300301594
0.01478;5.300291828
0.0148;5.300281431
0.01482;5.300280421
0.01484;5.300278231
0.01486;5.300274846
0.01488;5.300270251
0.0149;5.30026443
0.01492;5.300257368
0.01494;5.300249051
0.01496;5.300239462
0.01498;5.300228587
0.015;5.300226448
0.01502;5.300222485
0.01504;5.300227239
0.01506;5.300230665
0.01508;5.300232759
0.0151;5.300233515
0.01512;5.300232928
0.01514;5.300251584
0.01516;5.300268897
0.01518;5.300284872
0.0152;5.300299515
0.01522;5.300302791
0.01524;5.300315291
0.01526;5.300315918
0.01528;5.30031471
0.0153;5.300322219
0.01532;5.300328411
0.01534;5.30033329
0.01536;5.300336863
0.01538;5.300339645
0.0154;5.300331604
0.01542;5.300312228
0.01544;5.30029155
0.01546;5.300269564
0.01548;5.300246267
0.0155;5.300242754
0.01552;5.300238953
0.01554;5.300214792
0.01556;5.300181328
0.01558;5.300128001
0.0156;5.300074867
0.01562;5.300043008
0.01564;5.300012337
0.01566;5.299982843
0.01568;5.299954516
0.0157;5.299927345
0.01572;5.299901321
0.01574;5.299876433
0.01576;5.29986271
0.01578;5.299849596
0.0158;5.299827047
0.01582;5.299826193
0.01584;5.299826446
0.01586;5.299847881
0.01588;5.299869409
0.0159;5.29987096
0.01592;5.299873638
0.01594;5.299877442
0.01596;5.299902449
0.01598;5.299927569
0.016;5.299952811
0.01602;5.299958108
0.01604;5.299964561
0.01606;5.299972172
0.01608;5.299980939
0.0161;5.299990862
0.01612;5.300001943
0.01614;5.30001418
0.01616;5.30005769
0.01618;5.300090285
0.0162;5.300111975
0.01622;5.300133315
0.01624;5.300154312
0.01626;5.30017497
0.01628;5.300185256
0.0163;5.30019572
0.01632;5.300216913
0.01634;5.300238801
0.01636;5.300271429
0.01638;5.300304256
0.0164;5.300316702
0.01642;5.300329357
0.01644;5.300352772
0.01646;5.300386951
0.01648;5.300420843
0.0165;5.300443906
0.01652;5.300456658
0.01654;5.300469137
0.01656;5.30047028
0.01658;5.300470122
0.0166;5.300469168
0.01662;5.300467927
0.01664;5.300486983
0.01666;5.30048516
0.01668;5.300483045
0.0167;5.300490671
0.01672;5.300487447
0.01674;5.300483921
0.01676;5.300490124
0.01678;5.300474918
0.0168;5.300458881
0.01682;5.300442004
0.01684;5.300424275
0.01686;5.300415724
0.01688;5.300405795
0.0169;5.300384444
0.01692;5.300322055
0.01694;5.300321548
0.01696;5.30033068
0.01698;5.300339417
0.017;5.30029757
0.01702;5.300257873
0.01704;5.300240384
0.01706;5.300223991
0.01708;5.300218721
0.0171;5.300203981
0.01712;5.300180273
0.01714;5.30016817
0.01716;5.30016715
0.01718;5.300166658
0.0172;5.300166688
0.01722;5.300187313
0.01724;5.300207436
0.01726;5.300237613
0.01728;5.300257264
0.0173;5.300286985
0.01732;5.300316747
0.01734;5.30034656
0.01736;5.300365883
0.01738;5.30038476
0.0174;5.300403196
0.01742;5.300421197
0.01744;5.300438767
0.01746;5.300465951
0.01748;5.300492207
0.0175;5.300507507
0.01752;5.300522407
0.01754;5.30054695
0.01756;5.300570597
0.01758;5.300593358
0.0176;5.300605203
0.01762;5.300637791
0.01764;5.30066102
0.01766;5.300685452
0.01768;5.300669917
0.0177;5.300655585
0.01772;5.300642445
0.01774;5.300630487
0.01776;5.300619701
0.01778;5.300610077
0.0178;5.300621682
0.01782;5.300613337
0.01784;5.300616172
0.01786;5.300619632
0.01788;5.300602608
0.0179;5.300585165
0.01792;5.300567285
0.01794;5.300548955
0.01796;5.300530158
0.01798;5.30051088
0.018;5.300470004
0.01802;5.300448682
0.01804;5.300436862
0.01806;5.300413431
0.01808;5.300398963
0.0181;5.300383411
0.01812;5.300366762
0.01814;5.300389676
0.01816;5.300380353
0.01818;5.300370441
0.0182;5.300359936
0.01822;5.300348833
0.01824;5.300337125
0.01826;5.300324808
0.01828;5.300311878
0.0183;5.300298328
0.01832;5.300294705
0.01834;5.30029097
0.01836;5.300287123
0.01838;5.300283164
0.0184;5.300279092
0.01842;5.30028546
0.01844;5.300292232
0.01846;5.300288864
0.01848;5.300295945
0.0185;5.300293402
0.01852;5.300302338
0.01854;5.300312718
0.01856;5.300324548
0.01858;5.300337833
0.0186;5.300352577
0.01862;5.300368787
0.01864;5.300386467
0.01866;5.300405621
0.01868;5.300426256
0.0187;5.300437826
0.01872;5.30046092
0.01874;5.300474953
0.01876;5.300500515
0.01878;5.300517023
0.0188;5.300524474
0.01882;5.300533417
0.01884;5.300533293
0.01886;5.300534133
0.01888;5.300535926
0.0189;5.300538661
0.01892;5.300542329
0.01894;5.300546919
0.01896;5.300552421
0.01898;5.300558825
0.019;5.300566121
0.01902;5.300563747
0.01904;5.300561728
0.01906;5.300560048
0.01908;5.300548652
0.0191;5.300538071
0.01912;5.300528286
0.01914;5.300519275
0.01916;5.300500467
0.01918;5.300481876
0.0192;5.300463476
0.01922;5.300445241
0.01924;5.300437698
0.01926;5.300420235
0.01928;5.300402867
0.0193;5.300395606
0.01932;5.300377843
0.01934;5.300370141
0.01936;5.300351891
0.01938;5.300343658
0.0194;5.300345419
0.01942;5.300347122
0.01944;5.300348751
0.01946;5.300350291
0.01948;5.300351726
0.0195;5.300353042
0.01952;5.300354223
0.01954;5.300355253
0.01956;5.30037722
0.01958;5.300410591
0.0196;5.300445327
0.01962;5.300481429
0.01964;5.300518897
0.01966;5.300557731
0.01968;5.30059793
0.0197;5.300639494
0.01972;5.300692463
0.01974;5.300746291
0.01976;5.300790944
0.01978;5.30083646
0.0198;5.300882328
0.01982;5.30092906
0.01984;5.300966616
0.01986;5.301005031
0.01988;5.301023198
0.0199;5.301041179
0.01992;5.30108006
0.01994;5.301129798
0.01996;5.301179842
0.01998;5.301209089
0.02;5.301237608
0.02002;5.301265388
0.02004;5.301303482
0.02006;5.301352398
0.02008;5.301401583
0.0201;5.301451038
0.02012;5.301500763
0.02014;5.301550758
0.02016;5.301601024
0.02018;5.301629945
0.0202;5.301647039
0.02022;5.301673393
0.02024;5.301698956
0.02026;5.30172372
0.02028;5.301747673
